,var1(t-3),var2(t-3),var3(t-3),var4(t-3),var1(t-2),var2(t-2),var3(t-2),var4(t-2),var1(t-1),var2(t-1),var3(t-1),var4(t-1),var4(t)
3,0.6138462,0.57069486,0.2547575,0.0,0.6132692,0.57205737,0.25383666,0.0,0.61269236,0.5734199,0.2532228,0.0,0.0
4,0.6132692,0.57205737,0.25383666,0.0,0.61269236,0.5734199,0.2532228,0.0,0.61230767,0.5618907,0.25537142,0.0,0.0
5,0.61269236,0.5734199,0.2532228,0.0,0.61230767,0.5618907,0.25537142,0.0,0.6117307,0.5502567,0.25751993,0.0,0.0
6,0.61230767,0.5618907,0.25537142,0.0,0.6117307,0.5502567,0.25751993,0.0,0.61115384,0.53788906,0.25936154,0.0,0.0
7,0.6117307,0.5502567,0.25751993,0.0,0.61115384,0.53788906,0.25936154,0.0,0.6107693,0.52541655,0.2615101,0.0,0.0
8,0.61115384,0.53788906,0.25936154,0.0,0.6107693,0.52541655,0.2615101,0.0,0.6101924,0.5130489,0.2633517,0.0,0.0
9,0.6107693,0.52541655,0.2615101,0.0,0.6101924,0.5130489,0.2633517,0.0,0.6096153,0.49376374,0.266728,0.0,0.0
10,0.6101924,0.5130489,0.2633517,0.0,0.6096153,0.49376374,0.266728,0.0,0.60923076,0.47447854,0.27010438,0.0,0.0
11,0.6096153,0.49376374,0.266728,0.0,0.60923076,0.47447854,0.27010438,0.0,0.6086539,0.46294934,0.27255985,0.0,0.0
12,0.60923076,0.47447854,0.27010438,0.0,0.6086539,0.46294934,0.27255985,0.0,0.60807705,0.45152494,0.2753223,0.0,0.0
13,0.6086539,0.46294934,0.27255985,0.0,0.60807705,0.45152494,0.2753223,0.0,0.60749996,0.43989098,0.27869853,0.0,0.0
14,0.60807705,0.45152494,0.2753223,0.0,0.60749996,0.43989098,0.27869853,0.0,0.6071154,0.42815214,0.2820749,0.0,0.0
15,0.60749996,0.43989098,0.27869853,0.0,0.6071154,0.42815214,0.2820749,0.0,0.60653853,0.42961952,0.2820749,0.0,0.0
16,0.6071154,0.42815214,0.2820749,0.0,0.60653853,0.42961952,0.2820749,0.0,0.60596156,0.43098205,0.2820749,0.0,0.0
17,0.60653853,0.42961952,0.2820749,0.0,0.60596156,0.43098205,0.2820749,0.0,0.6055769,0.41662297,0.28821364,0.0,0.0
18,0.60596156,0.43098205,0.2820749,0.0,0.6055769,0.41662297,0.28821364,0.0,0.605,0.40215907,0.29435232,0.0,0.0
19,0.6055769,0.41662297,0.28821364,0.0,0.605,0.40215907,0.29435232,0.0,0.60442317,0.38507494,0.2980356,0.0,0.0
20,0.605,0.40215907,0.29435232,0.0,0.60442317,0.38507494,0.2980356,0.0,0.6040386,0.36788595,0.30202577,0.0,0.0
21,0.60442317,0.38507494,0.2980356,0.0,0.6040386,0.36788595,0.30202577,0.0,0.6034615,0.3508018,0.30570903,0.0,0.0
22,0.6040386,0.36788595,0.30202577,0.0,0.6034615,0.3508018,0.30570903,0.0,0.60288465,0.3336128,0.30939224,0.0,0.0
23,0.6034615,0.3508018,0.30570903,0.0,0.60288465,0.3336128,0.30939224,0.0,0.6023077,0.31946334,0.31092694,0.0,0.0
24,0.60288465,0.3336128,0.30939224,0.0,0.6023077,0.31946334,0.31092694,0.0,0.6019231,0.3053139,0.31246158,0.0,0.0
25,0.6023077,0.31946334,0.31092694,0.0,0.6019231,0.3053139,0.31246158,0.0,0.60134614,0.29126924,0.31368938,0.0,0.0
26,0.6019231,0.3053139,0.31246158,0.0,0.60134614,0.29126924,0.31368938,0.0,0.60076916,0.2771198,0.31522402,0.0,0.0
27,0.60134614,0.29126924,0.31368938,0.0,0.60076916,0.2771198,0.31522402,0.0,0.6003847,0.27282256,0.3173726,0.0,0.0
28,0.60076916,0.2771198,0.31522402,0.0,0.6003847,0.27282256,0.3173726,0.0,0.59980774,0.26863012,0.31921425,0.0,0.0
29,0.6003847,0.27282256,0.3173726,0.0,0.59980774,0.26863012,0.31921425,0.0,0.5992309,0.26338956,0.320442,0.0,0.0
30,0.59980774,0.26863012,0.31921425,0.0,0.5992309,0.26338956,0.320442,0.0,0.5988462,0.2580442,0.32136282,0.0,0.0
31,0.5992309,0.26338956,0.320442,0.0,0.5988462,0.2580442,0.32136282,0.0,0.5982692,0.26422805,0.31491712,0.0,0.0
32,0.5988462,0.2580442,0.32136282,0.0,0.5982692,0.26422805,0.31491712,0.0,0.5976924,0.27041188,0.30877838,0.0,0.0
33,0.5982692,0.26422805,0.31491712,0.0,0.5976924,0.27041188,0.30877838,0.0,0.5971155,0.26139817,0.30939224,0.0,0.0
34,0.5976924,0.27041188,0.30877838,0.0,0.5971155,0.26139817,0.30939224,0.0,0.5967308,0.25238442,0.3100061,0.0,0.0
35,0.5971155,0.26139817,0.30939224,0.0,0.5967308,0.25238442,0.3100061,0.0,0.59615386,0.24871606,0.30877838,0.0,0.0
36,0.5967308,0.25238442,0.3100061,0.0,0.59615386,0.24871606,0.30877838,0.0,0.595577,0.24494284,0.30755064,0.0,0.0
37,0.59615386,0.24871606,0.30877838,0.0,0.595577,0.24494284,0.30755064,0.0,0.595,0.2433707,0.3063229,0.0,0.0
38,0.595577,0.24494284,0.30755064,0.0,0.595,0.2433707,0.3063229,0.0,0.59461534,0.24179853,0.3050951,0.0,0.0
39,0.595,0.2433707,0.3063229,0.0,0.59461534,0.24179853,0.3050951,0.0,0.5940385,0.24012157,0.30417427,0.0,0.0
40,0.59461534,0.24179853,0.3050951,0.0,0.5940385,0.24012157,0.30417427,0.0,0.59346163,0.23854941,0.3029466,0.0,0.0
41,0.5940385,0.24012157,0.30417427,0.0,0.59346163,0.23854941,0.3029466,0.0,0.59288466,0.23582433,0.3032535,0.0,0.0
42,0.59346163,0.23854941,0.3029466,0.0,0.59288466,0.23582433,0.3032535,0.0,0.5925,0.23320405,0.30356047,0.0,0.0
43,0.59288466,0.23582433,0.3032535,0.0,0.5925,0.23320405,0.30356047,0.0,0.5919231,0.23047897,0.30386743,0.0,0.0
44,0.5925,0.23320405,0.30356047,0.0,0.5919231,0.23047897,0.30386743,0.0,0.59134614,0.22775389,0.30417427,0.0,0.0
45,0.5919231,0.23047897,0.30386743,0.0,0.59134614,0.22775389,0.30417427,0.0,0.5907693,0.23047897,0.29834256,0.0,0.0
46,0.59134614,0.22775389,0.30417427,0.0,0.5907693,0.23047897,0.29834256,0.0,0.59019244,0.23309925,0.29281768,0.0,0.0
47,0.5907693,0.23047897,0.29834256,0.0,0.59019244,0.23309925,0.29281768,0.0,0.5898076,0.23907346,0.28667894,0.0,0.0
48,0.59019244,0.23309925,0.29281768,0.0,0.5898076,0.23907346,0.28667894,0.0,0.5892308,0.24504766,0.2805402,0.0,0.0
49,0.5898076,0.23907346,0.28667894,0.0,0.5892308,0.24504766,0.2805402,0.0,0.5886539,0.2510219,0.2740945,0.0,0.0
50,0.5892308,0.24504766,0.2805402,0.0,0.5886539,0.2510219,0.2740945,0.0,0.58807695,0.25699612,0.2679558,0.0,0.0
51,0.5886539,0.2510219,0.2740945,0.0,0.58807695,0.25699612,0.2679558,0.0,0.58769226,0.2693638,0.26058927,0.0,0.0
52,0.58807695,0.25699612,0.2679558,0.0,0.58769226,0.2693638,0.26058927,0.0,0.5871154,0.28173146,0.2532228,0.0,0.0
53,0.58769226,0.2693638,0.26058927,0.0,0.5871154,0.28173146,0.2532228,0.0,0.58653843,0.28718162,0.24861875,0.0,0.0
54,0.5871154,0.28173146,0.2532228,0.0,0.58653843,0.28718162,0.24861875,0.0,0.5859616,0.29263178,0.24432167,0.0,0.0
55,0.58653843,0.28718162,0.24861875,0.0,0.5859616,0.29263178,0.24432167,0.0,0.5853847,0.2939943,0.24524245,0.0,0.0
56,0.5859616,0.29263178,0.24432167,0.0,0.5853847,0.2939943,0.24524245,0.0,0.58500004,0.29535687,0.24616328,0.0,0.0
57,0.5853847,0.2939943,0.24524245,0.0,0.58500004,0.29535687,0.24616328,0.0,0.58442307,0.3036369,0.24401471,0.0,0.0
58,0.58500004,0.29535687,0.24616328,0.0,0.58442307,0.3036369,0.24401471,0.0,0.5838462,0.3120218,0.2418662,0.0,0.0
59,0.58442307,0.3036369,0.24401471,0.0,0.5838462,0.3120218,0.2418662,0.0,0.58326924,0.31883448,0.23941067,0.0,0.0
60,0.5838462,0.3120218,0.2418662,0.0,0.58326924,0.31883448,0.23941067,0.0,0.58288455,0.32564718,0.23664823,0.0,0.0
61,0.58326924,0.31883448,0.23941067,0.0,0.58288455,0.32564718,0.23664823,0.0,0.5823077,0.3287915,0.23081645,0.0,0.0
62,0.58288455,0.32564718,0.23664823,0.0,0.5823077,0.3287915,0.23081645,0.0,0.58173084,0.33183104,0.22498462,0.0,0.0
63,0.5823077,0.3287915,0.23081645,0.0,0.58173084,0.33183104,0.22498462,0.0,0.58115387,0.3277434,0.22744009,0.0,0.0
64,0.58173084,0.33183104,0.22498462,0.0,0.58115387,0.3277434,0.22744009,0.0,0.580577,0.32365578,0.22989562,0.0,0.0
65,0.58115387,0.3277434,0.22744009,0.0,0.580577,0.32365578,0.22989562,0.0,0.5801923,0.31485167,0.23480663,0.0,0.0
66,0.580577,0.32365578,0.22989562,0.0,0.5801923,0.31485167,0.23480663,0.0,0.57961535,0.3060476,0.23971763,0.0,0.0
67,0.5801923,0.31485167,0.23480663,0.0,0.57961535,0.3060476,0.23971763,0.0,0.5790385,0.3044754,0.23941067,0.0,0.0
68,0.57961535,0.3060476,0.23971763,0.0,0.5790385,0.3044754,0.23941067,0.0,0.57846165,0.30300805,0.2387968,0.0,0.0
69,0.5790385,0.3044754,0.23941067,0.0,0.57846165,0.30300805,0.2387968,0.0,0.57807696,0.2994445,0.2400246,0.0,0.0
70,0.57846165,0.30300805,0.2387968,0.0,0.57807696,0.2994445,0.2400246,0.0,0.5775,0.2957761,0.24094537,0.0,0.0
71,0.57807696,0.2994445,0.2400246,0.0,0.5775,0.2957761,0.24094537,0.0,0.57692313,0.29221255,0.2421731,0.0,0.0
72,0.5775,0.2957761,0.24094537,0.0,0.57692313,0.29221255,0.2421731,0.0,0.57634616,0.28938267,0.2421731,0.0,0.0
73,0.57692313,0.29221255,0.2421731,0.0,0.57634616,0.28938267,0.2421731,0.0,0.5757693,0.28644794,0.2418662,0.0,0.0
74,0.57634616,0.28938267,0.2421731,0.0,0.5757693,0.28644794,0.2418662,0.0,0.5753846,0.28361806,0.2418662,0.0,0.0
75,0.5757693,0.28644794,0.2418662,0.0,0.5753846,0.28361806,0.2418662,0.0,0.57480776,0.28078815,0.2418662,0.0,0.0
76,0.5753846,0.28361806,0.2418662,0.0,0.57480776,0.28078815,0.2418662,0.0,0.5742308,0.28372288,0.23480663,0.0,0.0
77,0.57480776,0.28078815,0.2418662,0.0,0.5742308,0.28372288,0.23480663,0.0,0.57365394,0.28655276,0.22774705,0.0,0.0
78,0.5742308,0.28372288,0.23480663,0.0,0.57365394,0.28655276,0.22774705,0.0,0.57326925,0.28843936,0.22283605,0.0,0.0
79,0.57365394,0.28655276,0.22774705,0.0,0.57326925,0.28843936,0.22283605,0.0,0.5726923,0.29032597,0.21761814,0.0,0.0
80,0.57326925,0.28843936,0.22283605,0.0,0.5726923,0.29032597,0.21761814,0.0,0.5721154,0.2801593,0.22222218,0.0,0.0
81,0.5726923,0.29032597,0.21761814,0.0,0.5721154,0.2801593,0.22222218,0.0,0.57153857,0.27009746,0.22713324,0.0,0.0
82,0.5721154,0.2801593,0.22222218,0.0,0.57153857,0.27009746,0.22713324,0.0,0.5709616,0.26003563,0.23020253,0.0,0.0
83,0.57153857,0.27009746,0.22713324,0.0,0.5709616,0.26003563,0.23020253,0.0,0.5705769,0.25007862,0.23296496,0.0,0.0
84,0.5709616,0.26003563,0.23020253,0.0,0.5705769,0.25007862,0.23296496,0.0,0.57000005,0.23634838,0.2400246,0.0,0.0
85,0.5705769,0.25007862,0.23296496,0.0,0.57000005,0.23634838,0.2400246,0.0,0.5694231,0.22261816,0.24708411,0.0,0.0
86,0.57000005,0.23634838,0.2400246,0.0,0.5694231,0.22261816,0.24708411,0.0,0.5688462,0.21454772,0.24984655,0.0,0.0
87,0.5694231,0.22261816,0.24708411,0.0,0.5688462,0.21454772,0.24984655,0.0,0.56846154,0.20647731,0.25260898,0.0,0.0
88,0.5688462,0.21454772,0.24984655,0.0,0.56846154,0.20647731,0.25260898,0.0,0.56788456,0.20951681,0.25168815,0.0,0.0
89,0.56846154,0.20647731,0.25260898,0.0,0.56788456,0.20951681,0.25168815,0.0,0.5673077,0.21266113,0.25046036,0.0,0.0
90,0.56788456,0.20951681,0.25168815,0.0,0.5673077,0.21266113,0.25046036,0.0,0.56673086,0.21737762,0.24892572,0.0,0.0
91,0.5673077,0.21266113,0.25046036,0.0,0.56673086,0.21737762,0.24892572,0.0,0.5661539,0.22209412,0.24739107,0.0,0.0
92,0.56673086,0.21737762,0.24892572,0.0,0.5661539,0.22209412,0.24739107,0.0,0.5657692,0.22670577,0.24616328,0.0,0.0
93,0.5661539,0.22209412,0.24739107,0.0,0.5657692,0.22670577,0.24616328,0.0,0.56519234,0.23142228,0.24462864,0.0,0.0
94,0.5657692,0.22670577,0.24616328,0.0,0.56519234,0.23142228,0.24462864,0.0,0.56461537,0.23173672,0.24677715,0.0,0.0
95,0.56519234,0.23142228,0.24462864,0.0,0.56461537,0.23173672,0.24677715,0.0,0.5640385,0.23215595,0.24861875,0.0,0.0
96,0.56461537,0.23173672,0.24677715,0.0,0.5640385,0.23215595,0.24861875,0.0,0.5636538,0.22880201,0.25721303,0.0,0.0
97,0.5640385,0.23215595,0.24861875,0.0,0.5636538,0.22880201,0.25721303,0.0,0.563077,0.22555287,0.26611415,0.0,0.0
98,0.5636538,0.22880201,0.25721303,0.0,0.563077,0.22555287,0.26611415,0.0,0.5625,0.2248192,0.27808473,0.0,0.0
99,0.563077,0.22555287,0.26611415,0.0,0.5625,0.2248192,0.27808473,0.0,0.56192315,0.22408551,0.2903622,0.0,0.0
100,0.5625,0.2248192,0.27808473,0.0,0.56192315,0.22408551,0.2903622,0.0,0.5613462,0.21853055,0.3066298,0.0,0.0
101,0.56192315,0.22408551,0.2903622,0.0,0.5613462,0.21853055,0.3066298,0.0,0.5609615,0.21287076,0.32289746,0.0,0.0
102,0.5613462,0.21853055,0.3066298,0.0,0.5609615,0.21287076,0.32289746,0.0,0.56038463,0.20951681,0.3443831,0.0,0.0
103,0.5609615,0.21287076,0.32289746,0.0,0.56038463,0.20951681,0.3443831,0.0,0.5598078,0.20626768,0.36556163,0.0,0.0
104,0.56038463,0.20951681,0.3443831,0.0,0.5598078,0.20626768,0.36556163,0.0,0.5592308,0.19819725,0.3848987,0.0,0.0
105,0.5598078,0.20626768,0.36556163,0.0,0.5592308,0.19819725,0.3848987,0.0,0.5588461,0.1901268,0.40454265,0.0,0.0
106,0.5592308,0.19819725,0.3848987,0.0,0.5588461,0.1901268,0.40454265,0.0,0.55826926,0.18205637,0.42418662,0.0,0.0
107,0.5588461,0.1901268,0.40454265,0.0,0.55826926,0.18205637,0.42418662,0.0,0.5576923,0.17409077,0.44352362,0.0,0.0
108,0.55826926,0.18205637,0.42418662,0.0,0.5576923,0.17409077,0.44352362,0.0,0.55711544,0.16602033,0.4628606,0.0,0.0
109,0.5576923,0.17409077,0.44352362,0.0,0.55711544,0.16602033,0.4628606,0.0,0.5565386,0.1579499,0.48250464,0.0,0.0
110,0.55711544,0.16602033,0.4628606,0.0,0.5565386,0.1579499,0.48250464,0.0,0.5561539,0.14264752,0.4960098,0.0,0.0
111,0.5565386,0.1579499,0.48250464,0.0,0.5561539,0.14264752,0.4960098,0.0,0.5555769,0.12744994,0.509822,0.0,0.0
112,0.5561539,0.14264752,0.4960098,0.0,0.5555769,0.12744994,0.509822,0.0,0.55500007,0.12210459,0.51933694,0.0,0.0
113,0.5555769,0.12744994,0.509822,0.0,0.55500007,0.12210459,0.51933694,0.0,0.5544231,0.11686405,0.52915895,0.0,0.0
114,0.55500007,0.12210459,0.51933694,0.0,0.5544231,0.11686405,0.52915895,0.0,0.5540384,0.11214756,0.543892,0.0,0.0
115,0.5544231,0.11686405,0.52915895,0.0,0.5540384,0.11214756,0.543892,0.0,0.55346155,0.10743108,0.558625,0.0,0.0
116,0.5540384,0.11214756,0.543892,0.0,0.55346155,0.10743108,0.558625,0.0,0.5528847,0.103133835,0.57090235,0.0,0.0
117,0.55346155,0.10743108,0.558625,0.0,0.5528847,0.103133835,0.57090235,0.0,0.5523077,0.09883659,0.58317983,0.0,0.0
118,0.5528847,0.103133835,0.57090235,0.0,0.5523077,0.09883659,0.58317983,0.0,0.5517309,0.096949995,0.59300184,0.0,0.0
119,0.5523077,0.09883659,0.58317983,0.0,0.5517309,0.096949995,0.59300184,0.0,0.5513462,0.09495859,0.60282385,0.0,0.0
120,0.5517309,0.096949995,0.59300184,0.0,0.5513462,0.09495859,0.60282385,0.0,0.5507692,0.09160464,0.6154082,0.0,0.0
121,0.5513462,0.09495859,0.60282385,0.0,0.5507692,0.09160464,0.6154082,0.0,0.55019236,0.088250704,0.6282996,0.0,0.0
122,0.5507692,0.09160464,0.6154082,0.0,0.55019236,0.088250704,0.6282996,0.0,0.5496155,0.085001566,0.6408839,0.0,0.0
123,0.55019236,0.088250704,0.6282996,0.0,0.5496155,0.085001566,0.6408839,0.0,0.5492307,0.08164762,0.6534684,0.0,0.0
124,0.5496155,0.085001566,0.6408839,0.0,0.5492307,0.08164762,0.6534684,0.0,0.54865384,0.07829367,0.66635966,0.0,0.0
125,0.5492307,0.08164762,0.6534684,0.0,0.54865384,0.07829367,0.66635966,0.0,0.548077,0.07493972,0.6789441,0.0,0.0
126,0.54865384,0.07829367,0.66635966,0.0,0.548077,0.07493972,0.6789441,0.0,0.5475,0.06875589,0.67710245,0.0,0.0
127,0.548077,0.07493972,0.6789441,0.0,0.5475,0.06875589,0.67710245,0.0,0.54692316,0.06257205,0.67556775,0.0,0.0
128,0.5475,0.06875589,0.67710245,0.0,0.54692316,0.06257205,0.67556775,0.0,0.5465385,0.060475837,0.68753827,0.0,0.0
129,0.54692316,0.06257205,0.67556775,0.0,0.5465385,0.060475837,0.68753827,0.0,0.5459615,0.05848443,0.6995088,0.0,0.0
130,0.5465385,0.060475837,0.68753827,0.0,0.5459615,0.05848443,0.6995088,0.0,0.54538465,0.056388218,0.7102517,0.0,0.0
131,0.5459615,0.05848443,0.6995088,0.0,0.54538465,0.056388218,0.7102517,0.0,0.5448078,0.054292,0.7209945,0.0,0.0
132,0.54538465,0.056388218,0.7102517,0.0,0.5448078,0.054292,0.7209945,0.0,0.5444231,0.05313908,0.73112345,0.0,0.0
133,0.5448078,0.054292,0.7209945,0.0,0.5444231,0.05313908,0.73112345,0.0,0.54384613,0.052090973,0.7412523,0.0,0.0
134,0.5444231,0.05313908,0.73112345,0.0,0.54384613,0.052090973,0.7412523,0.0,0.5432693,0.051252488,0.73112345,0.0,0.0
135,0.54384613,0.052090973,0.7412523,0.0,0.5432693,0.051252488,0.73112345,0.0,0.5426923,0.05051881,0.7209945,0.0,0.0
136,0.5432693,0.051252488,0.73112345,0.0,0.5426923,0.05051881,0.7209945,0.0,0.54211545,0.049156275,0.7338859,0.0,0.0
137,0.5426923,0.05051881,0.7209945,0.0,0.54211545,0.049156275,0.7338859,0.0,0.54173076,0.047688916,0.74677706,0.0,0.0
138,0.54211545,0.049156275,0.7338859,0.0,0.54173076,0.047688916,0.74677706,0.0,0.5411539,0.04758411,0.74677706,0.0,0.0
139,0.54173076,0.047688916,0.74677706,0.0,0.5411539,0.04758411,0.74677706,0.0,0.54057693,0.047479298,0.74677706,0.0,0.0
140,0.5411539,0.04758411,0.74677706,0.0,0.54057693,0.047479298,0.74677706,0.0,0.5400001,0.04496384,0.76058924,0.0,0.0
141,0.54057693,0.047479298,0.74677706,0.0,0.5400001,0.04496384,0.76058924,0.0,0.5396154,0.04244838,0.7747084,0.0,0.0
142,0.5400001,0.04496384,0.76058924,0.0,0.5396154,0.04244838,0.7747084,0.0,0.5390384,0.042657997,0.77255976,0.0,0.0
143,0.5396154,0.04244838,0.7747084,0.0,0.5390384,0.042657997,0.77255976,0.0,0.53846157,0.042972434,0.7707182,0.0,1.0
144,0.5390384,0.042657997,0.77255976,0.0,0.53846157,0.042972434,0.7707182,0.0,0.5394231,0.040771406,0.7707182,1.0,1.0
145,0.53846157,0.042972434,0.7707182,0.0,0.5394231,0.040771406,0.7707182,1.0,0.54038465,0.038675193,0.77041125,1.0,1.0
146,0.5394231,0.040771406,0.7707182,1.0,0.54038465,0.038675193,0.77041125,1.0,0.5411539,0.036474165,0.77041125,1.0,1.0
147,0.54038465,0.038675193,0.77041125,1.0,0.5411539,0.036474165,0.77041125,1.0,0.54211545,0.034273136,0.7701044,1.0,1.0
148,0.5411539,0.036474165,0.77041125,1.0,0.54211545,0.034273136,0.7701044,1.0,0.5430769,0.034902003,0.7768569,1.0,1.0
149,0.54211545,0.034273136,0.7701044,1.0,0.5430769,0.034902003,0.7768569,1.0,0.54403853,0.035426054,0.7839165,1.0,1.0
150,0.5430769,0.034902003,0.7768569,1.0,0.54403853,0.035426054,0.7839165,1.0,0.54499996,0.03448276,0.7931247,1.0,1.0
151,0.54403853,0.035426054,0.7839165,1.0,0.54499996,0.03448276,0.7931247,1.0,0.5457692,0.03364427,0.80233276,1.0,1.0
152,0.54499996,0.03448276,0.7931247,1.0,0.5457692,0.03364427,0.80233276,1.0,0.54673076,0.032805786,0.8124616,1.0,1.0
153,0.5457692,0.03364427,0.80233276,1.0,0.54673076,0.032805786,0.8124616,1.0,0.5476924,0.03207211,0.8225906,1.0,1.0
154,0.54673076,0.032805786,0.8124616,1.0,0.5476924,0.03207211,0.8225906,1.0,0.54865384,0.030604757,0.8096992,1.0,1.0
155,0.5476924,0.03207211,0.8225906,1.0,0.54865384,0.030604757,0.8096992,1.0,0.5496155,0.029242218,0.7965008,1.0,1.0
156,0.54865384,0.030604757,0.8096992,1.0,0.5496155,0.029242218,0.7965008,1.0,0.55038464,0.03312022,0.7808471,1.0,1.0
157,0.5496155,0.029242218,0.7965008,1.0,0.55038464,0.03312022,0.7808471,1.0,0.5513462,0.036998216,0.76519334,1.0,1.0
158,0.55038464,0.03312022,0.7808471,1.0,0.5513462,0.036998216,0.76519334,1.0,0.5523077,0.039094433,0.7434008,1.0,1.0
159,0.5513462,0.036998216,0.76519334,1.0,0.5523077,0.039094433,0.7434008,1.0,0.55326915,0.04129546,0.72130144,1.0,1.0
160,0.5523077,0.039094433,0.7434008,1.0,0.55326915,0.04129546,0.72130144,1.0,0.5542308,0.044649404,0.723143,1.0,1.0
161,0.55326915,0.04129546,0.72130144,1.0,0.5542308,0.044649404,0.723143,1.0,0.55500007,0.048003353,0.7252915,1.0,1.0
162,0.5542308,0.044649404,0.723143,1.0,0.55500007,0.048003353,0.7252915,1.0,0.5559616,0.044859026,0.7277471,1.0,1.0
163,0.55500007,0.048003353,0.7252915,1.0,0.5559616,0.044859026,0.7277471,1.0,0.55692303,0.041714706,0.73020256,1.0,1.0
164,0.5559616,0.044859026,0.7277471,1.0,0.55692303,0.041714706,0.73020256,1.0,0.5578847,0.040876213,0.7437078,1.0,1.0
165,0.55692303,0.041714706,0.73020256,1.0,0.5578847,0.040876213,0.7437078,1.0,0.55865395,0.03993292,0.757213,1.0,1.0
166,0.5578847,0.040876213,0.7437078,1.0,0.55865395,0.03993292,0.757213,1.0,0.5596154,0.035635676,0.7697973,1.0,1.0
167,0.55865395,0.03993292,0.757213,1.0,0.5596154,0.035635676,0.7697973,1.0,0.56057703,0.03123362,0.7823818,1.0,1.0
168,0.5596154,0.035635676,0.7697973,1.0,0.56057703,0.03123362,0.7823818,1.0,0.56153846,0.032700974,0.78422344,1.0,1.0
169,0.56057703,0.03123362,0.7823818,1.0,0.56153846,0.032700974,0.78422344,1.0,0.5625,0.034168325,0.7860651,1.0,1.0
170,0.56153846,0.032700974,0.78422344,1.0,0.5625,0.034168325,0.7860651,1.0,0.56326926,0.035426054,0.7820749,1.0,1.0
171,0.5625,0.034168325,0.7860651,1.0,0.56326926,0.035426054,0.7820749,1.0,0.5642307,0.036683787,0.7777778,1.0,1.0
172,0.56326926,0.035426054,0.7820749,1.0,0.5642307,0.036683787,0.7777778,1.0,0.56519234,0.039408866,0.771639,1.0,1.0
173,0.5642307,0.036683787,0.7777778,1.0,0.56519234,0.039408866,0.771639,1.0,0.5661539,0.04213395,0.76519334,1.0,1.0
174,0.56519234,0.039408866,0.771639,1.0,0.5661539,0.04213395,0.76519334,1.0,0.5671154,0.042238757,0.76672804,1.0,1.0
